# DarkSide-50 2022
# https://arxiv.org/pdf/2207.11966
# mass [GeV]    sigma_SI [cm^2]
1.1672651169958954	8.663254616450706e-40
1.181973710594447	6.6512773700256604e-40
1.1998226642606982	4.845121824976046e-40
1.2183922704848464	3.656624487854055e-40
1.2372392997412247	2.793072529820466e-40
1.258497307643553	2.1334952039964483e-40
1.2801164370446696	1.6375388173973745e-40
1.304307388802897	1.2513617461812636e-40
1.3312077386679217	9.452131845697059e-41
1.3586537568551342	7.21160322058973e-41
1.3890248700076495	5.385288887829431e-41
1.4224409811191991	4.1479409376567666e-41
1.4591216584699689	3.1839814793413624e-41
1.4967482253927988	2.4440410828307915e-41
1.535348169196641	1.8704233857852245e-41
1.5749354095926043	1.4425505416159302e-41
1.6209990874719702	1.1121176093592822e-41
1.6768780654700408	8.496425378471067e-42
1.7346819010934487	6.49896796658711e-42
1.7944710627088005	5.0011011591218205e-42
1.8594200361197564	3.9500451545942646e-42
1.929974280618995	3.10971625977081e-42
2.003195370365799	2.4669777057446346e-42
