# SI neutrino floor for Xe 
#  Column 0 = Mass [GeV] 
#  Column 1 = Cross section [cm^2]
1.000000000000000056e-01 4.330133420120822998e-45
1.023340212191641979e-01 4.493567139872249990e-45
1.047225189888434937e-01 4.673027960847833534e-45
1.071667648032863518e-01 4.864700140233698375e-45
1.096680598336868540e-01 5.063791740339597176e-45
1.122277356208507687e-01 5.276115604360476119e-45
1.148471547840289320e-01 5.503904257587274049e-45
1.175277117462945192e-01 5.742307712438160524e-45
1.202708334768511633e-01 5.996017949362145825e-45
1.230779802506665188e-01 6.268500784419491443e-45
1.259506464258358105e-01 6.558866758142057710e-45
1.288903612390892850e-01 6.860632895453015235e-45
1.318986896198670322e-01 7.184194328817564252e-45
1.349772330233942608e-01 7.526183733755188636e-45
1.381276302832009917e-01 7.893515263101182952e-45
1.413515584835395578e-01 8.281158192294331267e-45
1.446507338521646480e-01 8.697282849147614255e-45
1.480269126739509333e-01 9.135126861267912689e-45
1.514818922258345801e-01 9.607317961076068764e-45
1.550175117335770014e-01 1.010779942590643167e-44
1.586356533508590516e-01 1.065462625961622787e-44
1.623382431612278576e-01 1.123993561004521091e-44
1.661272522034293042e-01 1.186997509645540502e-44
1.700046975206717659e-01 1.255394654024139958e-44
1.739726432343801643e-01 1.328398631504860478e-44
1.780332016430113962e-01 1.407897817456164325e-44
1.821885343465167173e-01 1.494201983559757091e-44
1.864408533970486059e-01 1.586610887724551756e-44
1.907924224765266130e-01 1.686601482152008480e-44
1.952455581016860897e-01 1.792967238557640198e-44
1.998026308572550258e-01 1.904154180376473920e-44
2.044660666579116715e-01 2.020769943855817403e-44
2.092383480396977358e-01 2.143166901340446834e-44
2.141220154815729471e-01 2.272511462252428713e-44
2.191196687578149116e-01 2.403685944868363522e-44
2.242339683219846114e-01 2.538601616332416403e-44
2.294676367231936187e-01 2.673392260785522980e-44
2.348234600554276463e-01 2.812560996029848462e-44
2.403042894406968444e-01 2.950552734616635123e-44
2.459130425468045167e-01 3.090720787122175179e-44
2.516527051405391679e-01 3.233033958279573624e-44
2.575263326771200512e-01 3.372132979146192864e-44
2.635370519267394296e-01 3.510269602585209258e-44
2.696880626390693036e-01 3.648711141507208038e-44
2.759826392466180334e-01 3.786783004011782813e-44
2.824241326078434922e-01 3.924912073860146621e-44
2.890159717909510095e-01 4.065003693600712072e-44
2.957616658993253433e-01 4.204619496900582956e-44
3.026648059395692369e-01 4.343634788967985395e-44
3.097290667331408232e-01 4.482221515087486854e-44
3.169582088726116131e-01 4.621627352715563101e-44
3.243560807235811305e-01 4.763236634740168509e-44
3.319266204733188896e-01 4.906839840288694663e-44
3.396738582272207929e-01 5.051521081756476458e-44
3.476019181541978309e-01 5.196450171860452598e-44
3.557150206821386162e-01 5.340478122589865885e-44
3.640174847446140394e-01 5.483266282752425615e-44
3.725137300800211437e-01 5.624009573331700778e-44
3.812082795843889094e-01 5.760173941601934072e-44
3.901057617190992199e-01 5.888831449835900406e-44
3.992109129748051544e-01 6.010036281373374870e-44
4.085285803928562220e-01 6.122223551150101986e-44
4.180637241455757991e-01 6.221860815053294832e-44
4.278214201767616132e-01 6.311862231414036185e-44
4.378068629038168735e-01 6.389225413329496075e-44
4.480253679829490632e-01 6.452909002670001208e-44
4.584823751389096036e-01 6.505803467010832539e-44
4.691834510607797992e-01 6.549974835844407336e-44
4.801342923653452721e-01 6.577963065385701163e-44
4.913407286296362919e-01 6.591113544237428538e-44
5.028087254942479323e-01 6.591592203846980001e-44
5.145443878390927317e-01 6.578212078554839318e-44
5.265539630332757293e-01 6.545078161346773867e-44
5.388438442608223244e-01 6.490594625661989436e-44
5.514205739240300996e-01 6.415635527733391062e-44
5.642908471262539916e-01 6.313118704084708600e-44
5.774615152359821035e-01 6.179018919451414387e-44
5.909395895340970872e-01 6.005816195427232295e-44
6.047322449462647631e-01 5.795087002542092793e-44
6.188468238624386109e-01 5.549693243879892744e-44
6.332908400455115050e-01 5.276019844066451492e-44
6.480719826311969189e-01 4.986018169702080300e-44
6.631981202212672288e-01 4.685531526399496270e-44
6.786773050723297063e-01 4.378911515119073066e-44
6.945177773823696388e-01 4.069901147302854932e-44
7.107279696773417532e-01 3.761005249145512554e-44
7.273165113001457405e-01 3.455547297414310301e-44
7.442922330043759693e-01 3.156022469746834416e-44
7.616641716552892127e-01 2.865464640844587860e-44
7.794415750404949383e-01 2.585813473276233079e-44
7.976339067929276716e-01 2.317866372710269811e-44
8.162508514287228900e-01 2.063987185819936310e-44
8.353023195026776371e-01 1.826607634199320995e-44
8.547984528840409935e-01 1.607066540473543605e-44
8.747496301554417153e-01 1.407357148359083460e-44
8.951664721378301826e-01 1.227321559285925059e-44
9.160598475443707533e-01 1.069411383277206455e-44
9.374408787662995568e-01 9.318109599902754077e-45
9.593209477938243745e-01 8.144059824774333180e-45
9.817117022752193112e-01 7.147775149724465509e-45
1.004625061717340895e+00 6.302036977683307439e-45
1.028073223830865190e+00 5.582313567439400962e-45
1.052068671023622892e+00 4.971308620326084837e-45
1.076624177045493402e+00 4.449353208076977227e-45
1.101752813788386742e+00 3.998255836673068162e-45
1.127467958244946722e+00 3.607762890281768383e-45
1.153783299629660863e+00 3.269585815638271782e-45
1.180712846666189586e+00 2.974346208982567504e-45
1.208270935044776451e+00 2.716384122806023645e-45
1.236472235053714952e+00 2.490077083971225744e-45
1.265331759388942823e+00 2.290981883261887271e-45
1.294864871145904317e+00 2.117892400584657801e-45
1.325087291997953276e+00 1.964296018080301255e-45
1.356015110565633286e+00 1.830426387798883841e-45
1.387664790981308460e+00 1.713412422842319517e-45
1.420053181653682550e+00 1.610647290087492642e-45
1.453197524236896188e+00 1.520589210096934317e-45
1.487115462808953792e+00 1.443355469061533694e-45
1.521825053264386218e+00 1.375680510886794261e-45
1.557344772926134269e+00 1.317923613555590728e-45
1.593693530381774526e+00 1.267553387248603842e-45
1.630890675549332647e+00 1.224837033556537118e-45
1.668956009978024069e+00 1.189371475342925140e-45
1.707909797389427720e+00 1.159294822062738727e-45
1.747772774464680934e+00 1.133271739477722602e-45
1.788566161883461847e+00 1.112793367741900844e-45
1.830311675620612144e+00 1.095808136090472290e-45
1.873031538506437554e+00 1.083583761438567070e-45
1.916748492056814968e+00 1.073719895591048835e-45
1.961485808579430445e+00 1.066514763588158628e-45
2.007267303562569438e+00 1.062428228499480451e-45